<Actel_Data_File>
    <format name="NVM File" version="01.00.00"/>
    <header>
        <die>
            M2S090
        </die>
        <family>
            SmartFusion2
        </family>
        <module>
            
        </module>
        <package>
            484 FBGA
        </package>
        <version>
            11.8.2.4
        </version>
    </header>
    <nvm>
        <region name="RISKV_BOOT" address="0x000000" retrieveAddressFromFile="false" size="7656" format="HEX" type="Data Storage" wordSize="8" numberWords="7656" memFile="C:/Users/hbreslin/Desktop/Project Workspace/My projects/M2S090/M2S090/hex/riscv-systick-blinky.hex" memType="INTELHEX" memFileTimeStamp="1499205149" clientType="public" program="true">
            6f00c0006f0000006f004003970200009382020373905230735000307350
            30307350203073504030970100209381817d17110020130101d36f004032
            130101f82320110023222100232431002326410023285100232a6100232c
            7100232e8100232091022322a1022324b1022326c1022328d102232ae102
            232cf102232e01032320110523222105232431052326410523285105232a
            6105232c7105232e8105232091072322a1072324b1072326c1072328d107
            232ae107232cf107f3221034232e510673252034f325103413060100ef00
            006e73101534b72200009382028073a00230832001000321410083218100
            0322c1008322010103234101832381010324c10183240102032541028325
            81020326c1028326010303274103832781030328c1038328010403294104
            83298104032ac104832a0105032b4105832b8105032cc105832c0106032d
            4106832d8106032ec106832e0107032f4107832f81071301010873002030
            130101ff93050000232481002326110013040500ef000002b707008003a5
            87008327c50363840700e780070013050400ef00d02f130101fdb7070080
            232e310183a98700232c4101232a51012328610123261102232481022322
            91022320210323267101930a0500138a0500130b100083a48914638c0400
            03a444001309f4ff1314240033848400635809028320c102032481028324
            4102032901028329c101032a8101832a4101032b0101832bc10013010103
            67800000630c0a0083274410638847011309f9ff1304c4ff6ff0dffb03a7
            4400832744001307f7ff631c270323a22401e38007fe83a6841833172b01
            83ab4400b376d70063920602e780070003a7440083a78914e31477f7e38c
            f4fa6ff01ff6232204006ff0dffc83a6c418832544083377d70063180700
            13850a00e78007006ff0dffc13850500e78007006ff01ffc130101fe232e
            8100130401022326a4fe2324b4fe2322c4fe6f00c0028327c4fe03a70700
            832784fe23a0e7008327c4fe938747002326f4fe832784fe938747002324
            f4fe032784fe832744fee3f8e7fc130000000324c1011301010267800000
            130101fd2326810213040103232ea4fc232cb4fc8327c4fd2326f4fe6f00
            80018327c4fe23a007008327c4fe938747002326f4fe0327c4fe832784fd
            e3f2e7fe130000000324c1021301010367800000130101fe232e1100232c
            810013040102b72700609387c7872326f4fe8327c4fe2320f4fe232204fe
            232404feb707008013860701b707008093850700b727006013854792eff0
            dff0b707008013868743b707008093850701b727006013850794eff01fef
            b70700809385074cb70700801385874beff0dff3b70700809385074cb707
            00801385074ceff09ff2930704fe9385070013051000ef10403c93070500
            13850700eff09fd6130101fd2326810213040103232ea4fcf32740f12326
            f4fe8327c4fe2324f4fe370700408327c4fd93d75700832684fe93965600
            b386f600b717000093870780b387f60093972700b307f70083a707002322
            f4fe8327c4fd93f7f70113071000b317f70093c7f7ff032744feb377f700
            2322f4fe370700408327c4fd93d75700832684fe93965600b386f600b717
            000093870780b387f60093972700b307f700032744fe23a0e70013000000
            0324c1021301010367800000130101fe232e810013040102f32740f12326
            f4fe8327c4fe2324f4fe37070040832784fe938707209397c700b307f700
            83a74700138507000324c1011301010267800000130101fd232681021304
            0103232ea4fcf32740f12326f4fe8327c4fe2324f4fe37070040832784fe
            938707209397c700b307f7000327c4fd23a2e700130000000324c1021301
            010367800000130101fe232e810013040102f36704302326f4fe13000000
            0324c1011301010267800000130101fd232611022324810213040103232e
            a4fc130710002326e4fe8326c4fd1307400633d7e6029307070013080000
            37070080232cf74a232e074bb707008083a6874b03a7c74b93870600b3e7
            e70063860708f32740f12324f4fe832784fe2322f4fe37070044b7c70000
            b307f70003a8c7ff83a787ff370700808325874b0326c74b37050044b386
            b70093880600b3b8f8003307c800b387e800138707009387060013080700
            832644fe37170000130707803387e600131737003307e5002320f7002322
            070193070008f3a747302320f4feeff09ff0232604fe8327c4fe13850700
            8320c102032481021301010367800000130101fe232e1100232c81001304
            010293070008f3b747302326f4feef10000a37070044b7c70000b307f700
            03a8c7ff83a787ff370700808325874b0326c74b37050044732740f12324
            e4fe832884feb386b700138306003333f3003307c800b307e30013870700
            938706001308070037170000130707803387e800131737003307e5002320
            f7002322070193070008f3a747302322f4fe130000008320c10103248101
            1301010267800000130101fe232e1100232c810013040102eff0dfd92326
            a4fea30504feb70700800327c4fe1317270093878743b307f70083a70700
            e780070093070500a305f4fe0325c4feeff0dfda0347b4fe930710006316
            f7000325c4feeff0dfc9130000008320c101032481011301010267800000
            130101ff232611002324810013040101ef00c00eb707004423a007001300
            00008320c100032481001301010167800000130101fe232e1100232c8100
            130401022326a4fe2324b4fe8327c4fe63d207020327c4feb707008093c7
            f7ff3377f7009307b0006316f700eff09ff26f0080078327c4fe63d20702
            0327c4feb707008093c7f7ff3377f700930770006316f700eff05fe56f00
            00058327c4fe63d207020327c4feb707008093c7f7ff3377f70093073000
            6316f700eff09ff46f00800213065000b72700609385478813051000ef00
            80488327c4fe9387170013850700ef004043832784fe138507008320c101
            032481011301010267800000130101ff2326110023248100130401011305
            a000ef004040130101ff232681001304010193070000138507000324c100
            1301010167800000130101ff232681001304010193070000138507000324
            c1001301010167800000130101ff23268100130401019307000013850700
            0324c1001301010167800000130101ff2326810013040101930700001385
            07000324c1001301010167800000130101ff232681001304010193070000
            138507000324c1001301010167800000130101ff23268100130401019307
            0000138507000324c1001301010167800000130101ff2326810013040101
            93070000138507000324c1001301010167800000130101ff232681001304
            010193070000138507000324c1001301010167800000130101ff23268100
            1304010193070000138507000324c1001301010167800000130101ff2326
            81001304010193070000138507000324c1001301010167800000130101ff
            232681001304010193070000138507000324c10013010101678000001301
            01ff232681001304010193070000138507000324c1001301010167800000
            130101ff232681001304010193070000138507000324c100130101016780
            0000130101ff232681001304010193070000138507000324c10013010101
            67800000130101ff232681001304010193070000138507000324c1001301
            010167800000130101ff232681001304010193070000138507000324c100
            1301010167800000130101ff232681001304010193070000138507000324
            c1001301010167800000130101ff23268100130401019307000013850700
            0324c1001301010167800000130101ff2326810013040101930700001385
            07000324c1001301010167800000130101ff232681001304010193070000
            138507000324c1001301010167800000130101ff23268100130401019307
            0000138507000324c1001301010167800000130101ff2326810013040101
            93070000138507000324c1001301010167800000130101ff232681001304
            010193070000138507000324c1001301010167800000130101ff23268100
            1304010193070000138507000324c1001301010167800000130101ff2326
            81001304010193070000138507000324c1001301010167800000130101ff
            232681001304010193070000138507000324c10013010101678000001301
            01ff232681001304010193070000138507000324c1001301010167800000
            130101ff232681001304010193070000138507000324c100130101016780
            0000130101ff232681001304010193070000138507000324c10013010101
            67800000130101ff232681001304010193070000138507000324c1001301
            010167800000130101ff232681001304010193070000138507000324c100
            1301010167800000130101ff232681001304010193070000138507000324
            c1001301010167800000130101fe232e8100130401022326a4fe6f000000
            130101fe232e8100130401022326a4feb70700800327c4fe23a0e74c9307
            f0ff138507000324c1011301010267800000130101fe232e1100232c8100
            130401022326a4fe2324b4fe2322c4fe13059000eff01ffb930705001385
            07008320c101032481011301010267800000130101fd2326810213040103
            232ea4fc232cb4fc8327c4fd2326f4fe8327c4fe032784fd23a0e7001300
            00000324c1021301010367800000130101fd2326810213040103232ea4fc
            8327c4fd2326f4fe8327c4fe83a70700138507000324c102130101036780
            0000130101fd2326810213040103232ea4fc232cb4fc8327c4fd2326f4fe
            832784fd13970701135707018327c4fe2390e700130000000324c1021301
            010367800000130101fd2326810213040103232ea4fc8327c4fd2326f4fe
            8327c4fe83d707009397070193d70701138507000324c102130101036780
            0000130101fd2326810213040103232ea4fc232cb4fc8327c4fd2326f4fe
            832784fd13f7f70f8327c4fe2380e700130000000324c102130101036780
            0000130101fd2326810213040103232ea4fc8327c4fd2326f4fe8327c4fe
            83c7070093f7f70f138507000324c1021301010367800000130101fd2326
            11022324810213040103232ea4fc232cb4fc9307060013870600231bf4fc
            93070700a30af4fc8327c4fd638e070c034754fd9307700063e8e70c0357
            64fdb72700006372f70c832784fd13878700835764fd93f7f70f93850700
            13050700eff0dff2832784fd9386c700034754fd835764fd93d7574093f7
            877fb367f7009385070013850600eff05ff08327c4fd032784fd23a0e700
            8327c4fd83a707009387070113850700eff01ff29307050093f72700a307
            f4fe6f0000048327c4fd83a707009387470013850700eff0dfef93070500
            2307f4fe8327c4fd83a707009387070113850700eff01fee9307050093f7
            2700a307f4fe8347f4fee39007fc8327c4fd23820700130000008320c102
            032481021301010367800000130101fd232611022324810213040103232e
            a4fc232cb4fc232ac4fc8327c4fd63800708832784fd638c0706832744fd
            63880706232604fe6f00c0058327c4fd83a707009387070113850700eff0
            1fe69307050093f71700a305f4fe8347b4fee38e07fc8327c4fd83a60700
            032784fd8327c4feb307f70083c707009385070013850600eff0dfde8327
            c4fe938717002326f4fe0327c4fe832744fde360f7fa130000008320c102
            032481021301010367800000130101fd2326110223248102232291021304
            0103232ea4fc232cb4fc232ac4fc232404fe8327c4fd6386070e832784fd
            6382070e832744fd638e070c232404fe8327c4fd83a70700938707011385
            0700eff09fda93070500a303f4fe8327c4fd03c74700834774feb367f700
            13f7f70f8327c4fd2382e700834774fe93f72700a307f4fe6f00c0078327
            c4fd83a7070093864700032784fd832784feb304f70013850600eff05fd5
            930705002380f400832784fe938717002324f4fe8327c4fd83a707009387
            070113850700eff0dfd293070500a303f4fe8327c4fd03c74700834774fe
            b367f70013f7f70f8327c4fd2382e700834774fe93f72700a307f4fe8347
            f4fe63880700032784fe832744fde36cf7f6832784fe138507008320c102
            03248102832441021301010367800000130101fd23261102232481021304
            0103232ea4fc232cb4fc8327c4fd63800708832784fd638c0706232604fe
            6f00c0058327c4fd83a707009387070113850700eff09fc89307050093f7
            1700a305f4fe8347b4fee38e07fc8327c4fd83a60700032784fd8327c4fe
            b307f70083c707009385070013850600eff05fc18327c4fe938717002326
            f4fe032784fd8327c4feb307f70083c70700e39c07f8130000008320c102
            032481021301010367800000130101fd232611022324810213040103232e
            a4fc232cb4fc232ac4fca30704fe832784fd2324f4fe8327c4fd032784fd
            23a0e7008327c4fd032744fd23a2e700a30704fe832784fd2324f4fe6f00
            800293050000032584feeff05fb8832784fe938747002324f4fe8347f4fe
            93871700a307f4fe0347f4fe9307f001e3fae7fc8327c4fd83a747001307
            1000638ae7021307100063e4e706130720006384e7006f00000c8327c4fd
            83a70700938707089305f0ff13850700eff05fa46f00400a8327c4fd83a7
            070013870708b70701009385f7ff13050700eff0dfa88327c4fd83a70700
            13874708b70701009385f7ff13050700eff01fa76f0080068327c4fd83a7
            0700938707089305f00f13850700eff0dfac8327c4fd83a7070093874708
            9305f00f13850700eff05fab8327c4fd83a70700938787089305f00f1385
            0700eff0dfa98327c4fd83a707009387c7089305f00f13850700eff05fa8
            13000000130000008320c102032481021301010367800000130101fe232e
            1100232c8100130401022326a4fe2324b4fe8327c4fe83a7470013071000
            638ae7021307100063eee706130720006384e7006f0000108327c4fe83a7
            07009387070a832584fe13850700eff09f936f00400e8327c4fe83a70700
            9387070a032784fe13170701135707019305070013850700eff09f978327
            c4fe83a707001387470a832784fe93d707019397070193d7070193850700
            13050700eff01f956f0040098327c4fe83a707009387070a032784fe1377
            f70f9305070013850700eff05f9a8327c4fe83a707001387470a832784fe
            93d7870093f7f70f9385070013050700eff01f988327c4fe83a707001387
            870a832784fe93d7070193f7f70f9385070013050700eff0df958327c4fe
            83a707001387c70a832784fe93d7870193f7f70f9385070013050700eff0
            9f9313000000130000008320c101032481011301010267800000130101fd
            232611022324810213040103232ea4fc232604fe8327c4fd83a747001307
            1000638ae7021307100063e2e708130720006384e7006f0080128327c4fd
            83a707009387070913850700eff09f822326a4fe6f00c0108327c4fd83a7
            07009387070913850700eff0df8793070500138707008327c4feb3e7e700
            2326f4fe8327c4fd83a707009387470913850700eff05f85930705009397
            0701138707008327c4feb3e7e7002326f4fe6f00400b8327c4fd83a70700
            9387070913850700eff09f8993070500138707008327c4feb3e7e7002326
            f4fe8327c4fd83a707009387470913850700eff01f879307050093978700
            138707008327c4feb3e7e7002326f4fe8327c4fd83a70700938787091385
            0700eff05f849307050093970701138707008327c4feb3e7e7002326f4fe
            8327c4fd83a707009387c70913850700eff09f8193070500939787011387
            07008327c4feb3e7e7002326f4fe130000008327c4fe138507008320c102
            032481021301010367800000130101fe232e810013040102f32740f12324
            f4fe832784fe2322f4fe232604fe6f00c00337070040832744fe93965700
            8327c4feb386f600b717000093870780b387f60093972700b307f70023a0
            07008327c4fe938717002326f4fe8327c4fee38207fc232604fe6f004002
            370700408327c4fe93972700b307f70023a207008327c4fe938717002326
            f4fe0327c4fe9307e001e3fce7fc37070040832744fe938707209397c700
            b307f70023a00700b717000093870780f3a747302320f4fe130000000324
            c1011301010267800000130101fe232e1100232c810013040102b7070080
            13850755eff01fda2326a4fe8327c4fe93c7f7ff93f7070f2324f4feb707
            008083a7470013971700b707008023a2e700b707008003a7470093074000
            63f8e700b70700801307100023a2e700b707008083a74700032784feb367
            f7002324f4fe832584feb707008013858754eff0dfbe130000008320c101
            032481011301010267800000130101fd232611022324810213040103232e
            a4fc232cb4fceff01fe813062000b7250070b707008013850755eff05fa3
            13062000b7550070b707008013858754eff01fa2930610001306c002b715
            0070b707008013858755eff04fe5b707008083a7070093850700b7070080
            13858755eff01f94b7477902138507d6efe0dfd39307e4fe130610009385
            0700b707008013858755eff0cffe93070500a307f4fe8347f4fee38e07fc
            9307e4fe1306100093850700b707008013858755eff00ff16ff01ffc6865
            6c6c6f000000747261700a0000000d0a53797374656d2074696d65722042
            6c696e6b79204578616d706c652e200a0d204f6273657276652074686520
            4c45447320626c696e6b696e67206f6e2074686520626f6172642e205468
            65204c4544207061747465726e73206368616e6765732020657665727920
            74696d6520612073797374656d2074696d657220696e7465727275707420
            6f63637572730d0a00000000430000008c18006001000000100000801000
            008000000000000000000000000000000000fc02008064030080cc030080
            000000000000000000000000000000000000000000000000000000000000
            000000000000201900600000000000000000000000000000000000000000
            000000000000000000000000000000000000000000000000000000000000
            000000000000000000000000000000000000000000000000000000000000
            000000000000000000000000000000000000000000000000000000000000
            000001000000000000000e33cdab34126de6ecde05000b00000000000000
            000000000000000000000000000000000000000000000000000000000000
            000000000000000000000000000000000000000000000000000000000000
            000000000000000000000000000000000000000000000000000000000000
            000000000000000000000000000000000000000000000000000000000000
            000000000000000000000000000000000000000000000000000000000000
            000000000000000000000000000000000000000000000000000000000000
            000000000000000000000000000000000000000000000000000000000000
            000000000000000000000000000000000000000000000000000000000000
            000000000000000000000000000000000000000000000000000000000000
            000000000000000000000000000000000000000000000000000000000000
            000000000000000000000000000000000000000000000000000000000000
            000000000000000000000000000000000000000000000000000000000000
            000000000000000000000000000000000000000000000000000000000000
            000000000000000000000000000000000000000000000000000000000000
            000000000000000000000000000000000000000000000000000000000000
            000000000000000000000000000000000000000000000000000000000000
            000000000000000000000000000000000000000000000000000000000000
            000000000000000000000000000000000000000000000000000000000000
            000000000000000000000000000000000000000000000000000000000000
            000000000000000000000000000000000000000000000000000000000000
            000000000000000000000000000000000000000000000000000000000000
            000000000000000000000000000000000000000000000000000000000000
            000000000000000000000000000000000000000000000000000000000000
            000000000000000000000000000000000000000000000000000000000000
            000000000000000000000000000000000000000000000000000000000000
            000000000000000000000000000000000000000000000000000000000000
            000000000000000000000000000000000000000000000000000000000000
            000000000000000000000000000000000000000000000000000000000000
            000000000000000000000000000000000000000000000000000000009408
            0060b4080060d4080060f408006014090060340900605409006074090060
            94090060b4090060d4090060f4090060140a0060340a0060540a0060740a
            0060940a0060b40a0060d40a0060f40a0060140b0060340b0060540b0060
            740b0060940b0060b40b0060d40b0060f40b0060140c0060340c0060540c
            0060740c0060
            <crc>
                7a5b
            </crc>
        </region>
        <region name="M3_BOOT" address="0x078000" retrieveAddressFromFile="false" size="3488" format="HEX" type="Data Storage" wordSize="8" numberWords="3488" memFile="C:/Users/hbreslin/Desktop/Project Workspace/My projects/M2S090/M2S090/hex/M3-Disable_M2S090-Eval-Kit_Enable-DDR.hex" memType="INTELHEX" memFileTimeStamp="1499205149" clientType="public" program="true">
            <read_protect/>
            00000120910100007f030000810300008303000085030000870300000000
            0000000000000000000000000000890300008b030000000000008d030000
            8f03000091030000930300009503000097030000990300009b0300009d03
            00009f030000a1030000a3030000a5030000a7030000a9030000ab030000
            ad030000af030000b1030000b3030000b5030000b7030000b9030000bb03
            0000bd030000bf030000c1030000c3030000c5030000c7030000c9030000
            cb030000cd030000cf030000d1030000d3030000d5030000d7030000d903
            0000db030000dd030000df030000e1030000e3030000e5030000e7030000
            e9030000eb030000ed030000ef030000f1030000f3030000f5030000f703
            0000f9030000fb030000fd030000ff030000010400000304000005040000
            07040000090400000b0400000d0400000f04000011040000130400001504
            000017040000190400001b0400001d0400001f0400002104000023040000
            2504000027040000290400002b0400002d0400002f040000310400003304
            000000000000000000004ff0000bdff8be020068dff8b612096801f00301
            00f01c00142801d14bf0020b002901d04bf0010bbbf1000f05d0a748a749
            dff8722200f09ff8a64880470bf0020abaf1000f0cd0dff86e02dff86e12
            02680b680fb44ff000024ff0ff0302600b609d4800220123022808d1dff8
            3e120a60dff842120a60dff836120b60012808d1dff82e120a60dff82a12
            0a60dff81e120b609148002809d191489149924a00f032f891489249924a
            00f02df892489249934a00f028f892489349dff8e62100f05af8bbf1000f
            12d090489049dff8da2100f051f80bf0020abaf1000f07d00fbc02600b60
            00bfaff30080aff30080dff820020ff2030e00474ff000004ff00001dff8
            14f2fee72de9f841884225d0b2eb010200d5fee740ea010313f0030302d0
            00f01df819e04ff0000390461211f7d09a421cbff0c8f0c103f10103f8d1
            08f00f08b8f1000f08d004780c7000f1010001f10101b8f10108f6d1bde8
            f88108b54ff0000303780b7000f1010001f10101013af7d108bd884237d0
            00f00306002e14d04ff00405a5eb06044ff0080707fb06f8914669fa08f9
            002c07d080f8009069fa07f900f10100013cf5e74ff000060f46091a8846
            0911914614461546b14206d018bfa0e8340206f10106b142f8d108f00f08
            b8f1000f07d002704fea322200f10100b8f10108f4e77047fee7fee7fee7
            fee7fee7fee7fee7fee7fee7fee7fee7fee7fee7fee7fee7fee7fee7fee7
            fee7fee7fee7fee7fee7fee7fee7fee7fee7fee7fee7fee7fee7fee7fee7
            fee7fee7fee7fee7fee7fee7fee7fee7fee7fee7fee7fee7fee7fee7fee7
            fee7fee7fee7fee7fee7fee7fee7fee7fee7fee7fee7fee7fee7fee7fee7
            fee7fee7fee7fee7fee7fee7fee7fee7fee7fee7fee7fee7fee7fee7fee7
            fee7fee7fee7fee7fee7fee7fee7fee7fee7fee7fee7fee7fee770470000
            0000a2a2a2a2008003400880034010800340308003403480034038800340
            18080240000000f0002000000120ad040000000000000100000000000060
            0000000090010000d0060060d00600007009000070090060000000203004
            002030040020500400205004002000f00020dd070000910700004ff60202
            f8b5394bd3f84c1191420bd1d3f8982042f48072c3f89820d3f8982022f0
            8062c3f89820314a3049536943f4007353618b6883b1fff7a6ff2d4b2b48
            1a46816c21f480318164196841f0030119605368db07fcd5f8bd274b274a
            1c6802f17203214632f8020f934241f8040bf9d1234804f5077233f8021f
            834242f8041bf9d11f4b0122b3f8f470b3f8f660b3f8f850b3f8fa00b3f8
            fc10c4f80074c4f80464b3f8fe70c4f80854b3f80061c4f80c04b3f80251
            c4f81014b3f80401b3f80611b3f80831c4f81474c4f81864c4f81c54c4f8
            4004c4f84414c4f848342260d4f8e430002bfbd0a5e70080034000ed00e0
            00200240c0060000b2050000a6060000b405000000000000880c47010200
            000081009f0900003333ffff777777070100004208003300000000000000
            8102230035020200670178011100330d1400100000330000000014040000
            00000000020000008040f8800700f8800700000200000000030003004000
            000000000000000009030100000000000000800000000000030000000000
            0000000000000b0000000000000000004000010410400000000000000000
            000000000000000000000000000000004000010410400000000000000000
            000000000000000000000000000000000000400001041040000000000000
            000000000000210000000300010001000000090000000100000000000000
            000000000000000000000000000000000000000802400000000000000000
            0000000010b5054c237833b9044b13b10448aff300800123237010bd3004
            00200000000040090000084b10b51bb108490848aff300800848036803b9
            10bd074b002bfbd0bde81040184700bf0000000034040020400900000000
            002000000000164b10b49a6c164942f480129a64986c01f11f0440f0f070
            98643222012001e011f9012f53099b0003f1604302f01f0203f5614300fa
            02f2a142c3f88020c3f88021edd1054b10bc9a6c22f0f0729a649a6c22f4
            80129a64704700bf008003401809000000b583b0fff7caff0e4b4ff05532
            c3f8882072b630bf1a464ff0aa300a49c3f888000968c9090191019b2bb1
            019b013b0193019b002bf9d1d2f88830db43c2f88830f0e7003001400400
            002070b50f4e0f4d761bb61018bf002405d0013455f8043b9847a642f9d1
            0a4e0b4d00f0a0f8761bb61018bf002406d0013455f8043b9847a642f9d1
            70bd70bd00bf58090000580900006009000058090000024b13b1024800f0
            05b87047000000004d080000002301461a46184600f014b838b5074d074c
            2c1ba41005d0013c55f8043d9847002cf9d1bde8384000f070b864090000
            600900002de9f047254c064625688846d5f8484192469946c4b360681f28
            17dc411c76b104eb8003c3f888a0d4f88851012282401543022ec4f88851
            c3f808911ed0831c6160002044f82380bde8f087144b03b34ff4c870aff3
            00800446d0b1d5f84831002784e888003846c5f848410121c4f88871c4f8
            8c71002ee1d0d1e7d4f88c311a43c4f88c21dae705f5a674c5f84841c1e7
            4ff0ff30bde8f08700bf3c0900000000000032333435363738393a3b3c3d
            3e3f404142434445464748494a4b4c4d4e4f50514300000008000020f8b5
            00bff8bc08bc9e467047f8b500bff8bc08bc9e4670472d080000f5060000
            d10600000000000000000000000000000000000000e1f50500000000f402
            00205c030020c40300200000000000000000000000000000000000000000
            000000000000000000000000000000003809000000000000000000000000
            000000000000000000000000000000000000000000000000000000000000
            000000000000000000000000000000000000000000000000000000000000
            000000000000000000000000000000000000000000000000000000000000
            00000000000000000000000001000000000000000e33cdab34126de6ecde
            05000b000000000000000000000000000000000000000000000000000000
            000000000000000000000000000000000000000000000000000000000000
            000000000000000000000000000000000000000000000000000000000000
            000000000000000000000000000000000000000000000000000000000000
            000000000000000000000000000000000000000000000000000000000000
            000000000000000000000000000000000000000000000000000000000000
            000000000000000000000000000000000000000000000000000000000000
            000000000000000000000000000000000000000000000000000000000000
            000000000000000000000000000000000000000000000000000000000000
            000000000000000000000000000000000000000000000000000000000000
            000000000000000000000000000000000000000000000000000000000000
            000000000000000000000000000000000000000000000000000000000000
            000000000000000000000000000000000000000000000000000000000000
            000000000000000000000000000000000000000000000000000000000000
            000000000000000000000000000000000000000000000000000000000000
            000000000000000000000000000000000000000000000000000000000000
            000000000000000000000000000000000000000000000000000000000000
            000000000000000000000000000000000000000000000000000000000000
            000000000000000000000000000000000000000000000000000000000000
            000000000000000000000000000000000000000000000000000000000000
            000000000000000000000000000000000000000000000000000000000000
            000000000000000000000000000000000000000000000000000000000000
            000000000000000000000000000000000000000000000000000000000000
            000000000000000000000000000000000000000000000000000000000000
            000000000000000000000000000000000000000000000000000000000000
            000000000000000000000000000000000000000000000000000000000000
            000000000000000000000000000000000000000000000000000000000000
            000000000000000000000000000000000000000000000000000000000000
            000000000000000000000000000000000000000000000000000000000000
            0000000000000000
            <crc>
                59b4
            </crc>
        </region>
    </nvm>
</Actel_Data_File>
